f	Au	phase
1.00000000000000e+03	1.87546727678996e+01	1.79968660410754e+02
1.04712854805090e+03	1.87546726433540e+01	1.79967183421728e+02
1.09647819614319e+03	1.87546725067925e+01	1.79965636824402e+02
1.14815362149688e+03	1.87546723570558e+01	1.79964017338241e+02
1.20226443461741e+03	1.87546721928727e+01	1.79962321528111e+02
1.25892541179417e+03	1.87546720128496e+01	1.79960545796981e+02
1.31825673855641e+03	1.87546718154582e+01	1.79958686378303e+02
1.38038426460289e+03	1.87546715990228e+01	1.79956739328014e+02
1.44543977074593e+03	1.87546713617061e+01	1.79954700516178e+02
1.51356124843621e+03	1.87546711014936e+01	1.79952565618222e+02
1.58489319246111e+03	1.87546708161762e+01	1.79950330105765e+02
1.65958690743756e+03	1.87546705033320e+01	1.79947989237013e+02
1.73780082874938e+03	1.87546701603052e+01	1.79945538046700e+02
1.81970085860999e+03	1.87546697841837e+01	1.79942971335558e+02
1.90546071796325e+03	1.87546693717748e+01	1.79940283659289e+02
1.99526231496888e+03	1.87546689195775e+01	1.79937469317020e+02
2.08929613085404e+03	1.87546684237530e+01	1.79934522339206e+02
2.18776162394956e+03	1.87546678800924e+01	1.79931436474975e+02
2.29086765276778e+03	1.87546672839804e+01	1.79928205178865e+02
2.39883291901949e+03	1.87546666303567e+01	1.79924821596947e+02
2.51188643150958e+03	1.87546659136727e+01	1.79921278552283e+02
2.63026799189539e+03	1.87546651278445e+01	1.79917568529707e+02
2.75422870333817e+03	1.87546642662011e+01	1.79913683659888e+02
2.88403150312661e+03	1.87546633214281e+01	1.79909615702639e+02
3.01995172040202e+03	1.87546622855054e+01	1.79905356029438e+02
3.16227766016838e+03	1.87546611496390e+01	1.79900895605136e+02
3.31131121482592e+03	1.87546599041866e+01	1.79896224968789e+02
3.46736850452532e+03	1.87546585385756e+01	1.79891334213597e+02
3.63078054770102e+03	1.87546570412134e+01	1.79886212965896e+02
3.80189396320562e+03	1.87546553993890e+01	1.79880850363157e+02
3.98107170553498e+03	1.87546535991651e+01	1.79875235030955e+02
4.16869383470336e+03	1.87546516252596e+01	1.79869355058846e+02
4.36515832240167e+03	1.87546494609164e+01	1.79863197975111e+02
4.57088189614876e+03	1.87546470877625e+01	1.79856750720316e+02
4.78630092322639e+03	1.87546444856524e+01	1.79849999619616e+02
5.01187233627274e+03	1.87546416324973e+01	1.79842930353767e+02
5.24807460249774e+03	1.87546385040770e+01	1.79835527928761e+02
5.49540873857626e+03	1.87546350738350e+01	1.79827776644045e+02
5.75439937337158e+03	1.87546313126525e+01	1.79819660059231e+02
6.02559586074359e+03	1.87546271886017e+01	1.79811160959248e+02
6.30957344480195e+03	1.87546226666744e+01	1.79802261317850e+02
6.60693448007598e+03	1.87546177084852e+01	1.79792942259409e+02
6.91830970918938e+03	1.87546122719452e+01	1.79783184018910e+02
7.24435960074992e+03	1.87546063109056e+01	1.79772965900066e+02
7.58577575029186e+03	1.87545997747650e+01	1.79762266231456e+02
7.94328234724284e+03	1.87545926080406e+01	1.79751062320612e+02
8.31763771102673e+03	1.87545847498972e+01	1.79739330405938e+02
8.70963589956083e+03	1.87545761336306e+01	1.79727045606377e+02
9.12010839355913e+03	1.87545666861018e+01	1.79714181868706e+02
9.54992586021439e+03	1.87545563271162e+01	1.79700711912361e+02
1.00000000000000e+04	1.87545449687426e+01	1.79686607171672e+02
1.04712854805090e+04	1.87545325145678e+01	1.79671837735379e+02
1.09647819614319e+04	1.87545188588778e+01	1.79656372283320e+02
1.14815362149689e+04	1.87545038857607e+01	1.79640178020146e+02
1.20226443461742e+04	1.87544874681237e+01	1.79623220605927e+02
1.25892541179417e+04	1.87544694666140e+01	1.79605464083507e+02
1.31825673855641e+04	1.87544497284369e+01	1.79586870802465e+02
1.38038426460289e+04	1.87544280860592e+01	1.79567401339505e+02
1.44543977074593e+04	1.87544043557878e+01	1.79547014415140e+02
1.51356124843621e+04	1.87543783362117e+01	1.79525666806464e+02
1.58489319246112e+04	1.87543498064931e+01	1.79503313255868e+02
1.65958690743757e+04	1.87543185244940e+01	1.79479906375494e+02
1.73780082874938e+04	1.87542842247231e+01	1.79455396547229e+02
1.81970085860999e+04	1.87542466160836e+01	1.79429731818057e+02
1.90546071796326e+04	1.87542053794046e+01	1.79402857790535e+02
1.99526231496889e+04	1.87541601647353e+01	1.79374717508196e+02
2.08929613085405e+04	1.87541105883774e+01	1.79345251335628e+02
2.18776162394956e+04	1.87540562296323e+01	1.79314396833012e+02
2.29086765276778e+04	1.87539966272355e+01	1.79282088624863e+02
2.39883291901950e+04	1.87539312754473e+01	1.79248258262712e+02
2.51188643150959e+04	1.87538596197666e+01	1.79212834081479e+02
2.63026799189540e+04	1.87537810522340e+01	1.79175741049252e+02
2.75422870333818e+04	1.87536949062813e+01	1.79136900610184e+02
2.88403150312662e+04	1.87536004510864e+01	1.79096230520225e+02
3.01995172040203e+04	1.87534968853860e+01	1.79053644675380e+02
3.16227766016840e+04	1.87533833306921e+01	1.79009052932172e+02
3.31131121482593e+04	1.87532588238588e+01	1.78962360920009e+02
3.46736850452534e+04	1.87531223089334e+01	1.78913469845097e+02
3.63078054770103e+04	1.87529726282264e+01	1.78862276285594e+02
3.80189396320563e+04	1.87528085125240e+01	1.78808671977623e+02
3.98107170553500e+04	1.87526285703628e+01	1.78752543591828e+02
4.16869383470338e+04	1.87524312762754e+01	1.78693772500091e+02
4.36515832240169e+04	1.87522149579116e+01	1.78632234532064e+02
4.57088189614878e+04	1.87519777819260e+01	1.78567799721149e+02
4.78630092322641e+04	1.87517177385159e+01	1.78500332039563e+02
5.01187233627276e+04	1.87514326244825e+01	1.78429689122143e+02
5.24807460249776e+04	1.87511200246739e+01	1.78355721978515e+02
5.49540873857628e+04	1.87507772916598e+01	1.78278274693305e+02
5.75439937337161e+04	1.87504015234684e+01	1.78197184114063e+02
6.02559586074362e+04	1.87499895392064e+01	1.78112279526568e+02
6.30957344480198e+04	1.87495378523622e+01	1.78023382317257e+02
6.60693448007601e+04	1.87490426415759e+01	1.77930305622507e+02
6.91830970918941e+04	1.87484997186415e+01	1.77832853964559e+02
7.24435960074995e+04	1.87479044934833e+01	1.77730822873923e+02
7.58577575029189e+04	1.87472519358284e+01	1.77623998498153e+02
7.94328234724287e+04	1.87465365332699e+01	1.77512157196961e+02
8.31763771102677e+04	1.87457522453915e+01	1.77395065123719e+02
8.70963589956087e+04	1.87448924535953e+01	1.77272477793505e+02
9.12010839355916e+04	1.87439499062426e+01	1.77144139637973e+02
9.54992586021443e+04	1.87429166586885e+01	1.77009783547458e+02
1.00000000000001e+05	1.87417840077517e+01	1.76869130400904e+02
1.04712854805091e+05	1.87405424201310e+01	1.76721888584406e+02
1.09647819614319e+05	1.87391814542333e+01	1.76567753499367e+02
1.14815362149689e+05	1.87376896748445e+01	1.76406407061551e+02
1.20226443461742e+05	1.87360545600278e+01	1.76237517192622e+02
1.25892541179418e+05	1.87342623995899e+01	1.76060737306088e+02
1.31825673855642e+05	1.87322981844119e+01	1.75875705790017e+02
1.38038426460290e+05	1.87301454858940e+01	1.75682045489327e+02
1.44543977074594e+05	1.87277863247149e+01	1.75479363190997e+02
1.51356124843622e+05	1.87252010280622e+01	1.75267249116168e+02
1.58489319246113e+05	1.87223680744433e+01	1.75045276423784e+02
1.65958690743757e+05	1.87192639251434e+01	1.74813000731218e+02
1.73780082874939e+05	1.87158628413583e+01	1.74569959658235e+02
1.81970085861000e+05	1.87121366859946e+01	1.74315672401634e+02
1.90546071796326e+05	1.87080547091067e+01	1.74049639349056e+02
1.99526231496890e+05	1.87035833159217e+01	1.73771341741721e+02
2.08929613085406e+05	1.86986858164022e+01	1.73480241397269e+02
2.18776162394957e+05	1.86933221553140e+01	1.73175780505466e+02
2.29086765276779e+05	1.86874486218003e+01	1.72857381511266e+02
2.39883291901951e+05	1.86810175375301e+01	1.72524447101670e+02
2.51188643150960e+05	1.86739769225866e+01	1.72176360314875e+02
2.63026799189540e+05	1.86662701383964e+01	1.71812484792535e+02
2.75422870333819e+05	1.86578355071912e+01	1.71432165198368e+02
2.88403150312663e+05	1.86486059077322e+01	1.71034727828972e+02
3.01995172040204e+05	1.86385083473446e+01	1.70619481445468e+02
3.16227766016841e+05	1.86274635106976e+01	1.70185718357451e+02
3.31131121482594e+05	1.86153852862477e+01	1.69732715793630e+02
3.46736850452535e+05	1.86021802718542e+01	1.69259737596480e+02
3.63078054770105e+05	1.85877472617777e+01	1.68766036281020e+02
3.80189396320565e+05	1.85719767181154e+01	1.68250855500455e+02
3.98107170553501e+05	1.85547502307065e+01	1.67713432963657e+02
4.16869383470339e+05	1.85359399706875e+01	1.67153003851192e+02
4.36515832240170e+05	1.85154081441808e+01	1.66568804777575e+02
4.57088189614879e+05	1.84930064540845e+01	1.65960078347377e+02
4.78630092322643e+05	1.84685755795802e+01	1.65326078351476e+02
5.01187233627277e+05	1.84419446847907e+01	1.64666075646747e+02
5.24807460249778e+05	1.84129309699828e+01	1.63979364757415e+02
5.49540873857630e+05	1.83813392807743e+01	1.63265271228828e+02
5.75439937337162e+05	1.83469617929485e+01	1.62523159753985e+02
6.02559586074364e+05	1.83095777926015e+01	1.61752443079464e+02
6.30957344480199e+05	1.82689535733909e+01	1.60952591679917e+02
6.60693448007602e+05	1.82248424744751e+01	1.60123144168786e+02
6.91830970918943e+05	1.81769850842128e+01	1.59263718387094e+02
7.24435960074997e+05	1.81251096356463e+01	1.58374023081956e+02
7.58577575029191e+05	1.80689326200471e+01	1.57453870052150e+02
7.94328234724290e+05	1.80081596441363e+01	1.56503186600036e+02
8.31763771102679e+05	1.79424865548038e+01	1.55522028088254e+02
8.70963589956090e+05	1.78716008520188e+01	1.54510590357246e+02
9.12010839355919e+05	1.77951834059772e+01	1.53469221717460e+02
9.54992586021446e+05	1.77129104882182e+01	1.52398434190431e+02
1.00000000000001e+06	1.76244561184091e+01	1.51298913638435e+02
1.04712854805091e+06	1.75294947187731e+01	1.50171528396249e+02
1.09647819614320e+06	1.74277040568773e+01	1.49017336003909e+02
1.14815362149689e+06	1.73187684450217e+01	1.47837587639682e+02
1.20226443461743e+06	1.72023821512328e+01	1.46633729870611e+02
1.25892541179418e+06	1.70782529635009e+01	1.45407403376414e+02
1.31825673855642e+06	1.69461058361601e+01	1.44160438362519e+02
1.38038426460290e+06	1.68056865360668e+01	1.42894846459714e+02
1.44543977074594e+06	1.66567651973883e+01	1.41612809009471e+02
1.51356124843622e+06	1.64991396882353e+01	1.40316661752373e+02
1.58489319246113e+06	1.63326386908106e+01	1.39008876066778e+02
1.65958690743758e+06	1.61571243997455e+01	1.37692037039423e+02
1.73780082874939e+06	1.59724947510910e+01	1.36368818781125e+02
1.81970085861000e+06	1.57786851069378e+01	1.35041957520722e+02
1.90546071796327e+06	1.55756693373798e+01	1.33714223110858e+02
1.99526231496890e+06	1.53634602616884e+01	1.32388389652841e+02
2.08929613085406e+06	1.51421094329985e+01	1.31067205989314e+02
2.18776162394958e+06	1.49117062742011e+01	1.29753366819643e+02
2.29086765276780e+06	1.46723765956538e+01	1.28449485163401e+02
2.39883291901952e+06	1.44242805464025e+01	1.27158066834149e+02
2.51188643150961e+06	1.41676100686293e+01	1.25881487493839e+02
2.63026799189541e+06	1.39025859390759e+01	1.24621972743925e+02
2.75422870333820e+06	1.36294544906425e+01	1.23381581580857e+02
2.88403150312664e+06	1.33484841119960e+01	1.22162193409165e+02
3.01995172040205e+06	1.30599616229820e+01	1.20965498673145e+02
3.16227766016842e+06	1.27641886193669e+01	1.19792993045224e+02
3.31131121482595e+06	1.24614778726192e+01	1.18645975001216e+02
3.46736850452536e+06	1.21521498599199e+01	1.17525546523900e+02
3.63078054770106e+06	1.18365294872684e+01	1.16432616608767e+02
3.80189396320566e+06	1.15149430553074e+01	1.15367907200069e+02
3.98107170553502e+06	1.11877155041319e+01	1.14331961160332e+02
4.16869383470341e+06	1.08551679605509e+01	1.13325151870419e+02
4.36515832240172e+06	1.05176155995491e+01	1.12347694067025e+02
4.57088189614881e+06	1.01753658214236e+01	1.11399655547067e+02
4.78630092322645e+06	9.82871673744286e+00	1.10480969400439e+02
5.01187233627279e+06	9.47795594997846e+00	1.09591446470762e+02
5.24807460249779e+06	9.12335960784937e+00	1.08730787785407e+02
5.49540873857632e+06	8.76519171399043e+00	1.07898596738537e+02
5.75439937337165e+06	8.40370366032680e+00	1.07094390852508e+02
6.02559586074366e+06	8.03913396371252e+00	1.06317612982065e+02
6.30957344480202e+06	7.67170817675372e+00	1.05567641861439e+02
6.60693448007605e+06	7.30163894807624e+00	1.04843801926086e+02
6.91830970918946e+06	6.92912620791767e+00	1.04145372368109e+02
7.24435960075000e+06	6.55435745664907e+00	1.03471595407404e+02
7.58577575029194e+06	6.17750813581277e+00	1.02821683779337e+02
7.94328234724292e+06	5.79874206337504e+00	1.02194827454735e+02
8.31763771102682e+06	5.41821191703814e+00	1.01590199619465e+02
8.70963589956093e+06	5.03605975155972e+00	1.01006961949262e+02
9.12010839355922e+06	4.65241753803357e+00	1.00444269221354e+02
9.54992586021449e+06	4.26740771495766e+00	9.99012733080380e+01
1.00000000000001e+07	3.88114374262936e+00	9.93771265992508e+01
1.04712854805091e+07	3.49373065395301e+00	9.88709849016179e+01
1.09647819614320e+07	3.10526559611730e+00	9.83820098607901e+01
1.14815362149690e+07	2.71583835880486e+00	9.79093709523924e+01
1.20226443461743e+07	2.32553188563972e+00	9.74522470848062e+01
1.25892541179419e+07	1.93442276647351e+00	9.70098278544940e+01
1.31825673855643e+07	1.54258170886913e+00	9.65813144918181e+01
1.38038426460290e+07	1.15007398777699e+00	9.61659205324072e+01
1.44543977074595e+07	7.56959872925273e-01	9.57628722461998e+01
1.51356124843623e+07	3.63295033878180e-01	9.53714088534092e+01
1.58489319246114e+07	-3.08690769351439e-02	9.49907825538619e+01
1.65958690743759e+07	-4.25484862639234e-01	9.46202583935049e+01
1.73780082874940e+07	-8.20508240978489e-01	9.42591139893821e+01
1.81970085861001e+07	-1.21589832306223e+00	9.39066391320559e+01
1.90546071796328e+07	-1.61161711069347e+00	9.35621352823128e+01
1.99526231496891e+07	-2.00762921109374e+00	9.32249149770408e+01
2.08929613085407e+07	-2.40390156777167e+00	9.28943011573971e+01
2.18776162394959e+07	-2.80040320623985e+00	9.25696264307939e+01
2.29086765276781e+07	-3.19710499325951e+00	9.22502322768140e+01
2.39883291901953e+07	-3.59397940827936e+00	9.19354682059115e+01
2.51188643150962e+07	-3.99100032573237e+00	9.16246908786515e+01
2.63026799189542e+07	-4.38814280685809e+00	9.13172631922880e+01
2.75422870333821e+07	-4.78538289972576e+00	9.10125533406602e+01
2.88403150312665e+07	-5.18269744614424e+00	9.07099338526950e+01
3.01995172040206e+07	-5.58006389415594e+00	9.04087806142367e+01
3.16227766016843e+07	-5.97746011482205e+00	9.01084718774669e+01
3.31131121482596e+07	-6.37486422201616e+00	8.98083872618358e+01
3.46736850452537e+07	-6.77225439394951e+00	8.95079067501836e+01
3.63078054770107e+07	-7.16960869515590e+00	8.92064096835956e+01
3.80189396320567e+07	-7.56690489766475e+00	8.89032737584976e+01
3.98107170553504e+07	-7.96412030008944e+00	8.85978740295614e+01
4.16869383470342e+07	-8.36123154335264e+00	8.82895819221575e+01
4.36515832240173e+07	-8.75821442176323e+00	8.79777642583587e+01
4.57088189614883e+07	-9.15504368814943e+00	8.76617823008746e+01
4.78630092322646e+07	-9.55169285174230e+00	8.73409908197817e+01
5.01187233627281e+07	-9.94813396749228e+00	8.70147371875185e+01
5.24807460249781e+07	-1.03443374154920e+01	8.66823605083373e+01
5.49540873857634e+07	-1.07402716691707e+01	8.63431907892628e+01
5.75439937337167e+07	-1.11359030509253e+01	8.59965481606032e+01
6.02559586074368e+07	-1.15311954738549e+01	8.56417421551993e+01
6.30957344480204e+07	-1.19261101682858e+01	8.52780710568997e+01
6.60693448007607e+07	-1.23206053918006e+01	8.49048213302132e+01
6.91830970918948e+07	-1.27146361215343e+01	8.45212671447288e+01
7.24435960075002e+07	-1.31081537275732e+01	8.41266700097128e+01
7.58577575029197e+07	-1.35011056263919e+01	8.37202785362946e+01
7.94328234724295e+07	-1.38934349134029e+01	8.33013283468455e+01
8.31763771102685e+07	-1.42850799738720e+01	8.28690421535210e+01
8.70963589956096e+07	-1.46759740716914e+01	8.24226300304858e+01
9.12010839355925e+07	-1.50660449157940e+01	8.19612899070346e+01
9.54992586021452e+07	-1.54552142043678e+01	8.14842083116437e+01
1.00000000000000e+08	-1.58433971474841e+01	8.09905613998920e+01
